            # q-path           omega(meV)         lw_diff(meV)          lambda_diff
            0.000000             0.000000          0.00000e+00          0.00000e+00
            0.025000             0.454900          0.00000e+00          0.00000e+00
            0.049900             0.923400          4.30000e-05          2.55640e-01
            0.074900             1.386200          4.20000e-05          1.10790e-01
            0.099800             1.844800          8.40000e-05          1.25111e-01
            0.124800             2.298300          6.30000e-05          6.04550e-02
            0.149800             2.746000          4.10000e-05          2.75620e-02
            0.174700             3.186900          3.30000e-05          1.64700e-02
            0.199700             3.620200          8.30000e-05          3.21030e-02
            0.224600             4.045200          2.20000e-05          6.81500e-03
            0.249600             4.461300          1.90000e-05          4.83900e-03
            0.274600             4.867800          7.60000e-05          1.62588e-02
            0.299500             5.264500         -6.10000e-05         -1.11570e-02
            0.324500             5.651100          5.00000e-06          7.94000e-04
            0.349400             6.027500          4.40000e-05          6.13900e-03
            0.374400             6.393600          6.30000e-05          7.81270e-03
            0.399300             6.749500         -3.90000e-05         -4.34000e-03
            0.424300             7.095300          1.00000e-05          1.00700e-03
            0.449300             7.431300         -3.20000e-05         -2.93700e-03
            0.474200             7.757700         -6.10000e-05         -5.13800e-03
            0.499200             8.074700          1.93000e-04          1.50047e-02
            0.524100             8.382400          1.58000e-04          1.13984e-02
            0.549100             8.681000          2.06000e-04          1.38570e-02
            0.574100             8.970600          2.00000e-04          1.25984e-02
            0.599000             9.251000          7.80000e-05          4.61960e-03
            0.624000             9.522200          6.50000e-05          3.63390e-03
            0.648900             9.783600          5.40000e-05          2.85970e-03
            0.673900            10.034700          5.30000e-05          2.66800e-03
            0.698900            10.274400          2.70000e-05          1.29653e-03
            0.723800            10.501100          2.70000e-05          1.24117e-03
            0.748800            10.712300          2.70000e-05          1.19265e-03
            0.773700            10.904400          4.50000e-05          1.91841e-03
            0.798700            11.073500          6.20000e-05          2.56300e-03
            0.823700            11.217200          7.70000e-05          3.10210e-03
            0.848600            11.337900          6.70000e-05          2.64200e-03
            0.873600            11.443200          1.92000e-04          7.43250e-03
            0.898500            11.541900          2.91000e-04          1.10735e-02
            0.923500            11.639900          3.28000e-04          1.22721e-02
            0.948400            11.740100          2.72000e-04          1.00040e-02
            0.973400            11.842300          1.35000e-04          4.87900e-03
            0.998400            11.945400          2.69000e-04          9.55600e-03
            1.007800            11.958000          8.16000e-04          2.89270e-02
            1.017200            11.970600          2.71000e-04          9.58700e-03
            1.026600            11.983100          2.11000e-04          7.44900e-03
            1.036000            11.995500          8.36000e-04          2.94505e-02
            1.045400            12.007600          2.00000e-06          7.00000e-05
            1.054800            12.019400          5.57000e-04          1.95445e-02
            1.064300            12.030700          4.97000e-04          1.74059e-02
            1.073700            12.041600          2.90000e-04          1.01379e-02
            1.083100            12.052000          1.81000e-04          6.31690e-03
            1.092500            12.061700          1.02000e-04          3.55360e-03
            1.101900            12.070900          3.69000e-04          1.28379e-02
            1.111300            12.079500          2.70000e-04          9.38000e-03
            1.120700            12.087500          1.99000e-04          6.90420e-03
            1.130200            12.094800          1.55000e-04          5.37110e-03
            1.139600            12.101500          1.55000e-04          5.36520e-03
            1.149000            12.107700          1.54000e-04          5.32510e-03
            1.158400            12.113200          1.69000e-04          5.83850e-03
            1.167800            12.118300          1.45000e-04          5.00510e-03
            1.177200            12.122700          1.17000e-04          4.03560e-03
            1.186600            12.126700          1.53000e-04          5.27400e-03
            1.196000            12.130200          2.05000e-04          7.06240e-03
            1.205500            12.133300          8.40000e-05          2.89240e-03
            1.214900            12.135900          1.34000e-04          4.61250e-03
            1.224300            12.138100          1.82000e-04          6.26230e-03
            1.233700            12.139900          2.56000e-04          8.80521e-03
            1.243100            12.141400          1.74000e-04          5.98327e-03
            1.252500            12.142500          8.10000e-05          2.78480e-03
            1.261900            12.143300          1.14000e-04          3.91892e-03
            1.271400            12.143800          1.25000e-04          4.29660e-03
            1.280800            12.143900          1.06000e-04          3.64350e-03
            1.287800            12.143800          9.10000e-05          3.12790e-03
            1.294900            12.143600          8.70000e-05          2.99060e-03
            1.302000            12.143100          8.30000e-05          2.85330e-03
            1.309000            12.142500          8.10000e-05          2.78480e-03
            1.316100            12.141700          1.62000e-04          5.57040e-03
            1.323100            12.140700          2.80000e-04          9.62918e-03
            1.330200            12.139500          2.57000e-04          8.84050e-03
            1.337300            12.138100          1.82000e-04          6.26230e-03
            1.344300            12.136500          1.78000e-04          6.12530e-03
            1.351400            12.134600          1.31000e-04          4.50970e-03
            1.358400            12.132500          1.47000e-04          5.06230e-03
            1.365500            12.130200          2.05000e-04          7.06240e-03
            1.372600            12.127600          1.64000e-04          5.65230e-03
            1.379600            12.124800          2.19000e-04          7.55090e-03
            1.386700            12.121700          1.51000e-04          5.20930e-03
            1.393700            12.118300          1.45000e-04          5.00510e-03
            1.400800            12.114600          1.44000e-04          4.97360e-03
            1.407900            12.110500          1.33000e-04          4.59680e-03
            1.414900            12.106200          2.04000e-04          7.05570e-03
            1.422000            12.101500          1.55000e-04          5.36520e-03
            1.429000            12.096500          1.15000e-04          3.98400e-03
            1.436100            12.091200          2.06000e-04          7.14270e-03
            1.443200            12.085500          2.34000e-04          8.12090e-03
            1.450200            12.079500          2.70000e-04          9.38000e-03
            1.457300            12.073100          3.76000e-04          1.30763e-02
            1.464300            12.066400          2.69000e-04          9.36510e-03
            1.471400            12.059300          2.71000e-04          9.44590e-03
            1.478500            12.052000          1.81000e-04          6.31690e-03
            1.485500            12.044200          1.07000e-04          3.73900e-03
            1.492600            12.036200          9.30000e-05          3.25400e-03
            1.499600            12.027900          5.31000e-04          1.86059e-02
            1.506700            12.019400          5.57000e-04          1.95445e-02
            1.513800            12.010600          3.39000e-04          1.19130e-02
            1.520800            12.001600          3.80000e-05          1.33800e-03
            1.527900            11.992400          7.63000e-04          2.68937e-02
            1.534900            11.983100          2.11000e-04          7.44900e-03
            1.542000            11.973700          3.10000e-04          1.09610e-02
            1.549100            11.964300          7.77000e-04          2.75160e-02
            1.556100            11.954800          6.87000e-04          2.43668e-02
            1.563200            11.945400          2.69000e-04          9.55600e-03
            1.584100            11.842200          3.58000e-04          1.29400e-02
            1.605100            11.736300         -2.70000e-05         -9.93000e-04
            1.626100            11.627000          2.25000e-04          8.43660e-03
            1.647000            11.513700          6.25000e-04          2.38989e-02
            1.668000            11.396300          2.80000e-04          1.09289e-02
            1.689000            11.275000          1.17000e-04          4.66560e-03
            1.709900            11.150900          2.83000e-04          1.15371e-02
            1.730900            11.025800          5.97000e-04          2.48933e-02
            1.751900            10.901800          2.83000e-04          1.20706e-02
            1.772800            10.781500          1.11000e-04          4.84000e-03
            1.793800            10.667000          2.43000e-04          1.08254e-02
            1.814800            10.560300          4.68000e-04          2.12727e-02
            1.835700            10.462800          1.99000e-04          9.21500e-03
            1.856700            10.375400          2.52000e-04          1.18670e-02
            1.877700            10.298100          4.67000e-04          2.23220e-02
            1.898600            10.230300          6.19000e-04          2.99806e-02
            1.919600            10.170300          5.36000e-04          2.62680e-02
            1.940500            10.115500         -1.08000e-04         -5.35000e-03
            1.961500            10.061800          3.29000e-04          1.64730e-02
            1.982500            10.004800         -2.25000e-04         -1.13940e-02
            2.003400             9.940100          8.10000e-05          4.15500e-03
            2.024400             9.864900          1.06000e-04          5.52200e-03
            2.045400             9.778300         -1.53000e-04         -8.11100e-03
            2.066300             9.680400          4.88000e-04          2.63970e-02
            2.087300             9.572300          2.83000e-04          1.56560e-02
            2.108300             9.455200          8.98000e-04          5.09170e-02
            2.129200             9.330400          3.61000e-04          2.10200e-02
            2.150200             9.199400          2.59000e-04          1.55130e-02
            2.171200             9.064000          4.34000e-04          2.67790e-02
            2.192100             8.926300          6.19000e-04          3.93800e-02
            2.213100             8.788500          4.07000e-04          2.67120e-02
            2.234100             8.653400          5.30000e-04          3.58790e-02
            2.255000             8.524000          8.03000e-04          5.60220e-02
            2.276000             8.403300          6.39000e-04          4.58710e-02
            2.297000             8.294500          3.54000e-04          2.60830e-02
            2.317900             8.200600          2.49000e-04          1.87690e-02
            2.338900             8.124400          5.53000e-04          4.24690e-02
            2.359800             8.068200          3.91000e-04          3.04480e-02
            2.380800             8.033700          4.78000e-04          3.75430e-02
            2.401800             8.022100          2.66000e-04          2.09520e-02
            2.415300             8.014200          8.98000e-04          7.08790e-02
            2.428900             7.991000          5.62000e-04          4.46130e-02
            2.442400             7.952700          6.63000e-04          5.31390e-02
            2.456000             7.900200          6.28000e-04          5.10050e-02
            2.469500             7.834300          7.23000e-04          5.97130e-02
            2.483000             7.756000          8.80000e-05          7.41500e-03
            2.496600             7.666400          6.27000e-04          5.40770e-02
            2.510100             7.566400          7.30000e-05          6.46300e-03
            2.523700             7.457100          4.80000e-05          4.37600e-03
            2.537200             7.339300          8.54000e-04          8.03670e-02
            2.550800             7.213500          6.17000e-04          6.01060e-02
            2.564300             7.080400          4.70000e-04          4.75240e-02
            2.577800             6.940300          4.87000e-04          5.12510e-02
            2.591400             6.793300          5.50000e-04          6.04130e-02
            2.604900             6.639500          3.00000e-04          3.44970e-02
            2.618500             6.478700          3.87000e-04          4.67380e-02
            2.632000             6.310700          3.35000e-04          4.26400e-02
            2.645600             6.135300          3.00000e-04          4.04000e-02
            2.659100             5.952000          3.10000e-04          4.43580e-02
            2.672600             5.760500          3.05000e-04          4.65921e-02
            2.686200             5.507100          2.75000e-04          4.59640e-02
            2.699700             5.242900          3.86000e-04          7.11820e-02
            2.713300             4.969300          1.66000e-04          3.40760e-02
            2.726800             4.687400          1.29000e-04          2.97610e-02
            2.740400             4.398700          1.52000e-04          3.98224e-02
            2.753900             4.104600          1.61000e-04          4.84410e-02
            2.767500             3.806600          1.23000e-04          4.30290e-02
            2.781000             3.506000          2.37000e-04          9.77360e-02
            2.794500             3.204100          2.80000e-04          1.38255e-01
            2.808100             2.902100          1.79000e-04          1.07735e-01
            2.821600             2.600900          1.97000e-04          1.47624e-01
            2.835200             2.301400          8.40000e-05          8.03950e-02
            2.848700             2.004200          6.70000e-05          8.45500e-02
            2.862300             1.709700          1.08000e-04          1.87291e-01
            2.875800             1.417900          9.50000e-05          2.39530e-01
            2.889300             1.128700          5.00000e-05          1.98950e-01
            2.902900             0.841400          3.30000e-05          2.36280e-01
            2.916400             0.554600          0.00000e+00          0.00000e+00
            2.930000             0.262500          0.00000e+00          0.00000e+00
            2.943500             0.000000          0.00000e+00          0.00000e+00
            2.976000             0.567200          0.00000e+00          0.00000e+00
            3.008500             1.138800          3.90000e-05          1.52440e-01
            3.040900             1.704500          4.20000e-05          7.32780e-02
            3.073400             2.263300          4.90000e-05          4.84890e-02
            3.105900             2.813400          3.20000e-05          2.04940e-02
            3.138400             3.352700          3.50000e-05          1.57833e-02
            3.170800             3.879500          2.30000e-05          7.74670e-03
            3.203300             4.392100          1.40000e-05          3.67890e-03
            3.235800             4.889100          7.00000e-06          1.48440e-03
            3.268300             5.369300          4.00000e-06          7.03400e-04
            3.300700             5.831800          3.00000e-06          4.47110e-04
            3.333200             6.276100          6.00000e-06          7.72130e-04
            3.365700             6.701700          7.00000e-06          7.90100e-04
            3.398100             7.108800          1.60000e-05          1.60494e-03
            3.430600             7.497800          3.50000e-05          3.15595e-03
            3.463100             7.869300          2.00000e-05          1.63710e-03
            3.495600             8.224000          1.59000e-04          1.19167e-02
            3.528000             8.563200          1.11000e-04          7.67300e-03
            3.560500             8.888100          1.62000e-04          1.03948e-02
            3.593000             9.199900         -3.60000e-05         -2.15600e-03
            3.625500             9.500000          9.90000e-05          5.56000e-03
            3.657900             9.789700          2.91000e-04          1.53915e-02
            3.690400            10.070200          1.27000e-04          6.34850e-03
            3.722900            10.342300         -1.07000e-04         -5.07100e-03
            3.755400            10.606800          1.22000e-04          5.49700e-03
            3.787800            10.864000          1.37000e-04          5.88400e-03
            3.820300            11.113600          8.90000e-05          3.65260e-03
            3.852800            11.354800          1.15000e-04          4.52134e-03
            3.885200            11.585800          7.60000e-05          2.87010e-03
            3.917700            11.803500          1.77000e-04          6.44020e-03
            3.950200            12.001400          1.23000e-04          4.32880e-03
            3.982700            12.166600          8.10000e-05          2.77380e-03
            4.015100            12.276000          9.40000e-05          3.16180e-03
            4.047600            12.312100          1.99000e-04          6.65460e-03
            4.080100            12.299600          1.55000e-04          5.19380e-03
            4.112600            12.283500          1.14000e-04          3.82990e-03
            4.145000            12.290200          1.00000e-04          3.35590e-03
            4.177500            12.327800          8.40000e-05          2.80180e-03
            4.210000            12.394900          1.00000e-06          3.30000e-05
            4.242400            12.485100          1.09000e-04          3.54460e-03

            0.000000             0.000000          0.00000e+00          0.00000e+00
            0.025000             0.591900          0.00000e+00          0.00000e+00
            0.049900             1.180400          2.50000e-05          9.09550e-02
            0.074900             1.770900          2.90000e-05          4.68750e-02
            0.099800             2.363200          4.90000e-05          4.44760e-02
            0.124800             2.957300          3.80000e-05          2.20250e-02
